Data from JAZA04901_14-32-26-191.txt Node
Date: Fri Oct 12 14:32:26 EDT 2018
User: physics
Spectrometer: JAZA0490
Scans to average: 1
Trigger mode: 0
Integration Time (sec): 1.000000E-1
Electric dark correction enabled: true
Boxcar width: 0
XAxis mode: Wavelengths
Number of Pixels in Spectrum: 2048
>>>>>Begin Spectral Data<<<<<
177.185	-19.08
177.571	-19.08
177.957	-19.08
178.343	-30.3
178.729	-5.61
179.115	10.1
179.5	52.74
179.886	-41.52
180.272	25.81
180.658	-23.57
181.043	-1.12
181.429	23.57
181.815	23.57
182.2	1.12
182.586	12.34
182.972	23.57
183.357	-10.1
183.743	-41.52
184.128	-39.28
184.513	37.03
184.899	-70.7
185.284	-77.43
185.67	-37.03
186.055	-19.08
186.44	-41.52
186.825	-46.01
187.21	52.74
187.596	-39.28
187.981	-12.34
188.366	14.59
188.751	12.34
189.136	-37.03
189.521	-10.1
189.906	-61.72
190.291	-14.59
190.676	-19.08
191.06	28.05
191.445	7.86
191.83	-16.83
192.215	3.37
192.599	59.48
192.984	61.72
193.369	-43.76
193.753	-12.34
194.138	-12.34
194.522	-25.81
194.907	88.65
195.291	-37.03
195.676	-3.37
196.06	-39.28
196.445	-14.59
196.829	-12.34
197.213	-90.9
197.597	23.57
197.982	25.81
198.366	23.57
198.75	-59.48
199.134	-25.81
199.518	-46.01
199.902	3.37
200.286	-12.34
200.67	14.59
201.054	-34.79
201.438	50.5
201.822	-19.08
202.206	-72.94
202.59	-5.61
202.973	-50.5
203.357	-1.12
203.741	16.83
204.124	37.03
204.508	37.03
204.892	16.83
205.275	-41.52
205.659	5.61
206.042	-23.57
206.426	1.12
206.809	-23.57
207.193	-77.43
207.576	-41.52
207.959	61.72
208.342	14.59
208.726	-30.3
209.109	-5.61
209.492	-16.83
209.875	-23.57
210.258	10.1
210.641	-16.83
211.025	-16.83
211.408	-46.01
211.79	5.61
212.173	23.57
212.556	14.59
212.939	37.03
213.322	-25.81
213.705	-52.74
214.088	10.1
214.47	-23.57
214.853	-41.52
215.236	-52.74
215.618	-1.12
216.001	-1.12
216.383	-12.34
216.766	19.08
217.148	-50.5
217.531	-50.5
217.913	-21.32
218.296	-37.03
218.678	-16.83
219.06	3.37
219.443	-14.59
219.825	-57.23
220.207	-63.96
220.589	32.54
220.971	-10.1
221.353	-102.12
221.735	-21.32
222.118	-30.3
222.5	-57.23
222.881	5.61
223.263	-28.05
223.645	19.08
224.027	-39.28
224.409	-90.9
224.791	16.83
225.172	-61.72
225.554	-28.05
225.936	-34.79
226.317	1.12
226.699	-23.57
227.081	-25.81
227.462	7.86
227.844	12.34
228.225	48.25
228.607	43.76
228.988	129.05
229.369	30.3
229.751	-12.34
230.132	-5.61
230.513	-14.59
230.894	-12.34
231.276	10.1
231.657	16.83
232.038	-19.08
232.419	12.34
232.8	37.03
233.181	-46.01
233.562	-34.79
233.943	-41.52
234.324	-46.01
234.705	3.37
235.085	37.03
235.466	28.05
235.847	5.61
236.228	-113.34
236.608	-32.54
236.989	-16.83
237.37	-23.57
237.75	-19.08
238.131	-39.28
238.511	21.32
238.892	-10.1
239.272	1.12
239.653	-68.45
240.033	-77.43
240.413	25.81
240.794	-23.57
241.174	-1.12
241.554	-66.21
241.934	-28.05
242.314	-14.59
242.694	54.99
243.075	14.59
243.455	10.1
243.835	-1.12
244.215	-52.74
244.595	-16.83
244.974	-46.01
245.354	-41.52
245.734	-14.59
246.114	-21.32
246.494	7.86
246.873	-90.9
247.253	25.81
247.633	1.12
248.012	34.79
248.392	-43.76
248.771	-48.25
249.151	-97.63
249.53	1.12
249.91	-30.3
250.289	-30.3
250.669	-19.08
251.048	12.34
251.427	1.12
251.806	-5.61
252.186	-30.3
252.565	7.86
252.944	-43.76
253.323	-52.74
253.702	10.1
254.081	16.83
254.46	-14.59
254.839	-25.81
255.218	-16.83
255.597	-57.23
255.976	-37.03
256.355	-93.14
256.733	-95.38
257.112	-68.45
257.491	-39.28
257.87	21.32
258.248	25.81
258.627	16.83
259.005	-7.86
259.384	48.25
259.762	-28.05
260.141	16.83
260.519	-61.72
260.898	-52.74
261.276	-46.01
261.654	-59.48
262.033	-1.12
262.411	-16.83
262.789	28.05
263.167	16.83
263.545	-14.59
263.924	-14.59
264.302	-97.63
264.68	-5.61
265.058	46.01
265.436	90.9
265.813	-3.37
266.191	-21.32
266.569	7.86
266.947	14.59
267.325	-28.05
267.702	-46.01
268.08	-48.25
268.458	23.57
268.835	-12.34
269.213	34.79
269.591	28.05
269.968	-7.86
270.346	-28.05
270.723	23.57
271.1	-57.23
271.478	-14.59
271.855	-46.01
272.232	-54.99
272.61	-16.83
272.987	-34.79
273.364	30.3
273.741	-1.12
274.118	19.08
274.495	1.12
274.872	14.59
275.249	48.25
275.626	-41.52
276.003	34.79
276.38	30.3
276.757	-63.96
277.134	-5.61
277.511	52.74
277.887	7.86
278.264	-14.59
278.641	52.74
279.018	-23.57
279.394	-34.79
279.771	-16.83
280.147	39.28
280.524	7.86
280.9	-30.3
281.277	-3.37
281.653	-12.34
282.029	-1.12
282.406	66.21
282.782	-50.5
283.158	-12.34
283.534	-12.34
283.91	-25.81
284.287	-10.1
284.663	12.34
285.039	-72.94
285.415	-10.1
285.791	-46.01
286.167	-23.57
286.542	-41.52
286.918	-111.1
287.294	16.83
287.67	1.12
288.046	-23.57
288.421	-28.05
288.797	1.12
289.173	23.57
289.548	-10.1
289.924	7.86
290.299	-57.23
290.675	7.86
291.05	-19.08
291.426	-72.94
291.801	16.83
292.177	41.52
292.552	-5.61
292.927	-37.03
293.302	-90.9
293.678	-25.81
294.053	12.34
294.428	102.12
294.803	5.61
295.178	-1.12
295.553	-14.59
295.928	-30.3
296.303	-57.23
296.678	-14.59
297.053	-12.34
297.427	-19.08
297.802	-95.38
298.177	3.37
298.552	7.86
298.926	12.34
299.301	-10.1
299.676	61.72
300.05	25.81
300.425	19.08
300.799	-5.61
301.174	-3.37
301.548	39.28
301.922	14.59
302.297	-5.61
302.671	-21.32
303.045	19.08
303.42	-16.83
303.794	-32.54
304.168	28.05
304.542	-48.25
304.916	-23.57
305.29	5.61
305.664	-30.3
306.038	-84.16
306.412	10.1
306.786	-59.48
307.16	34.79
307.534	-14.59
307.907	-72.94
308.281	-41.52
308.655	-25.81
309.028	-5.61
309.402	-50.5
309.776	1.12
310.149	23.57
310.523	-10.1
310.896	-37.03
311.27	3.37
311.643	-7.86
312.016	-19.08
312.39	-5.61
312.763	-30.3
313.136	-19.08
313.509	-32.54
313.883	-39.28
314.256	-41.52
314.629	-5.61
315.002	-52.74
315.375	14.59
315.748	23.57
316.121	-21.32
316.494	-57.23
316.867	-16.83
317.24	-75.19
317.612	-25.81
317.985	-23.57
318.358	-23.57
318.73	-5.61
319.103	-28.05
319.476	46.01
319.848	-3.37
320.221	-3.37
320.593	1.12
320.966	-77.43
321.338	-21.32
321.711	5.61
322.083	-5.61
322.455	-16.83
322.828	-5.61
323.2	66.21
323.572	28.05
323.944	7.86
324.316	61.72
324.688	-46.01
325.06	-61.72
325.432	-1.12
325.804	-48.25
326.176	-41.52
326.548	54.99
326.92	12.34
327.292	14.59
327.664	-46.01
328.035	-16.83
328.407	-19.08
328.779	-14.59
329.15	-30.3
329.522	61.72
329.893	-37.03
330.265	37.03
330.636	-14.59
331.008	-21.32
331.379	1.12
331.75	-34.79
332.122	3.37
332.493	-30.3
332.864	-19.08
333.236	39.28
333.607	7.86
333.978	30.3
334.349	25.81
334.72	-19.08
335.091	5.61
335.462	-12.34
335.833	-19.08
336.204	34.79
336.575	-68.45
336.945	-1.12
337.316	-16.83
337.687	-54.99
338.058	-52.74
338.428	-32.54
338.799	-57.23
339.169	-28.05
339.54	-77.43
339.911	-138.03
340.281	7.86
340.651	-63.96
341.022	-63.96
341.392	19.08
341.762	19.08
342.133	-39.28
342.503	16.83
342.873	41.52
343.243	14.59
343.613	16.83
343.984	-12.34
344.354	1.12
344.724	-52.74
345.094	-19.08
345.464	12.34
345.833	-41.52
346.203	1.12
346.573	-34.79
346.943	57.23
347.313	32.54
347.682	32.54
348.052	50.5
348.422	30.3
348.791	12.34
349.161	-43.76
349.53	-66.21
349.9	-46.01
350.269	-23.57
350.638	1.12
351.008	-28.05
351.377	14.59
351.746	-28.05
352.116	21.32
352.485	-7.86
352.854	-32.54
353.223	-1.12
353.592	104.36
353.961	34.79
354.33	3.37
354.699	7.86
355.068	3.37
355.437	-12.34
355.806	88.65
356.175	54.99
356.543	46.01
356.912	75.19
357.281	10.1
357.65	-57.23
358.018	52.74
358.387	66.21
358.755	-39.28
359.124	90.9
359.492	1.12
359.861	23.57
360.229	43.76
360.597	28.05
360.966	37.03
361.334	-10.1
361.702	19.08
362.07	63.96
362.438	37.03
362.807	75.19
363.175	57.23
363.543	59.48
363.911	99.87
364.279	88.65
364.646	41.52
365.014	102.12
365.382	23.57
365.75	12.34
366.118	61.72
366.485	155.98
366.853	108.85
367.221	95.38
367.588	126.81
367.956	34.79
368.323	164.96
368.691	135.78
369.058	93.14
369.426	126.81
369.793	97.63
370.16	214.34
370.528	225.56
370.895	230.05
371.262	236.78
371.629	236.78
371.996	142.52
372.363	169.45
372.73	182.91
373.097	236.78
373.464	180.67
373.831	290.64
374.198	178.43
374.565	144.76
374.932	158.23
375.299	173.94
375.665	151.49
376.032	205.36
376.399	313.09
376.765	270.44
377.132	209.85
377.498	281.67
377.865	232.29
378.231	324.31
378.598	434.28
378.964	445.5
379.331	384.91
379.697	369.2
380.063	402.86
380.429	418.57
380.795	317.58
381.162	416.33
381.528	418.57
381.894	353.49
382.26	423.06
382.626	373.68
382.992	351.24
383.358	331.04
383.723	337.77
384.089	324.31
384.455	292.89
384.821	340.02
385.186	423.06
385.552	326.55
385.918	470.19
386.283	476.92
386.649	497.12
387.014	553.23
387.38	533.03
387.745	539.77
388.111	589.14
388.476	609.34
388.841	721.56
389.206	649.74
389.572	654.23
389.937	654.23
390.302	766.45
390.667	750.73
391.032	860.71
391.397	856.22
391.762	883.15
392.127	977.41
392.492	954.97
392.857	1004.35
393.222	950.48
393.587	793.38
393.951	703.6
394.316	600.36
394.681	544.25
395.045	629.54
395.41	858.46
395.774	972.93
396.139	1026.79
396.503	1060.46
396.868	1013.32
397.232	1046.99
397.596	761.96
397.961	712.58
398.325	768.69
398.689	1060.46
399.053	1165.94
399.418	1280.4
399.782	1518.3
400.146	1511.57
400.51	1495.86
400.874	1560.94
401.238	1527.28
401.602	1599.1
401.965	1643.99
402.329	1760.69
402.693	1828.02
403.057	1742.74
403.42	1823.53
403.784	1830.27
404.148	1747.23
404.511	1684.38
404.875	1852.71
405.238	1778.65
405.602	1823.53
405.965	1720.29
406.329	1740.49
406.692	1736
407.055	1778.65
407.418	1801.09
407.782	1684.38
408.145	1747.23
408.508	1850.47
408.871	1821.29
409.234	2036.75
409.597	2166.92
409.96	2070.41
410.323	2000.84
410.686	1938
411.049	1962.68
411.412	1924.53
411.774	1881.89
412.137	2081.63
412.5	2108.57
412.862	2202.83
413.225	2328.51
413.588	2220.78
413.95	2200.58
414.313	2270.16
414.675	2274.65
415.037	2189.36
415.4	2256.69
415.762	2193.85
416.124	2254.45
416.487	2317.29
416.849	2162.43
417.211	2315.05
417.573	2350.96
417.935	2187.12
418.297	2189.36
418.659	2182.63
419.021	2270.16
419.383	2153.45
419.745	2258.94
420.107	2157.94
420.469	2234.25
420.83	2198.34
421.192	2232.01
421.554	2232.01
421.915	2400.33
422.277	2409.31
422.638	2413.8
423	2359.93
423.361	2413.8
423.723	2108.57
424.084	2171.41
424.446	2328.51
424.807	2290.36
425.168	2256.69
425.529	2407.06
425.891	2442.97
426.252	2326.27
426.613	2393.6
426.974	2442.97
427.335	2326.27
427.696	2366.67
428.057	2550.7
428.418	2324.02
428.778	2335.25
429.139	2429.51
429.5	2442.97
429.861	2341.98
430.221	2214.05
430.582	2288.11
430.943	2202.83
431.303	1940.24
431.664	1899.84
432.024	2047.97
432.385	2119.79
432.745	2624.77
433.105	2799.83
433.466	2552.95
433.826	2611.3
434.186	2721.27
434.546	2851.45
434.907	2656.19
435.267	2555.19
435.627	2606.81
435.987	2795.34
436.347	2876.13
436.707	2873.89
437.067	3125.26
437.427	3039.97
437.786	3051.19
438.146	3006.31
438.506	2938.98
438.866	2878.38
439.225	2752.69
439.585	2723.52
439.944	2842.47
440.304	2802.07
440.663	3022.02
441.023	2972.64
441.382	2871.64
441.742	2950.2
442.101	2972.64
442.46	3082.61
442.82	3192.59
443.179	3320.51
443.538	3228.5
443.897	3331.74
444.256	3210.54
444.615	3345.2
444.974	3273.38
445.333	3399.07
445.692	3417.02
446.051	3396.82
446.41	3381.11
446.768	3140.97
447.127	3149.94
447.486	3262.16
447.845	3345.2
448.203	3351.94
448.562	3493.33
448.92	3553.93
449.279	3513.53
449.637	3569.64
449.996	3636.97
450.354	3506.8
450.712	3567.39
451.071	3697.57
451.429	3726.74
451.787	3850.18
452.145	3749.19
452.503	3740.21
452.861	3760.41
453.219	3764.9
453.577	3690.83
453.935	3627.99
454.293	3376.62
454.651	3500.06
455.009	3699.81
455.367	3877.11
455.725	3740.21
456.082	3758.16
456.44	3834.47
456.798	3724.5
457.155	3764.9
457.513	4137.46
457.87	3964.64
458.228	4090.33
458.585	4070.13
458.942	3960.15
459.3	3877.11
459.657	3933.22
460.014	3922
460.371	3859.16
460.729	3987.09
461.086	3904.05
461.443	4072.37
461.8	4007.29
462.157	4204.79
462.514	4144.19
462.871	4254.16
463.227	4292.32
463.584	4386.58
463.941	4364.14
464.298	4308.03
464.655	4189.08
465.011	4310.27
465.368	4137.46
465.724	4314.76
466.081	4180.1
466.437	4278.85
466.794	4209.28
467.15	4471.87
467.507	4245.19
467.863	4088.08
468.219	4211.52
468.575	4269.87
468.932	4290.07
469.288	4299.05
469.644	4404.54
470	4492.07
470.356	4662.64
470.712	4545.93
471.068	4456.16
471.424	4429.22
471.78	4449.42
472.135	4548.17
472.491	4795.05
472.847	4761.39
473.203	5019.49
473.558	5113.75
473.914	4947.67
474.269	4801.79
474.625	5111.51
474.98	5243.92
475.336	5295.54
475.691	5297.79
476.046	5291.05
476.402	5309.01
476.757	5383.07
477.112	5344.92
477.467	5569.35
477.823	5412.25
478.178	5632.19
478.533	5629.95
478.888	5883.56
479.243	6130.44
479.598	5858.87
479.952	6000.27
480.307	6004.76
480.662	6341.41
481.017	6352.63
481.372	6318.97
481.726	6442.4
482.081	6370.59
482.435	6480.56
482.79	6655.62
483.144	6920.45
483.499	6904.74
483.853	6745.39
484.208	6660.11
484.562	6731.93
484.916	6830.68
485.27	6797.01
485.625	6655.62
485.979	6963.09
486.333	6817.21
486.687	6511.98
487.041	6020.47
487.395	5519.98
487.749	5955.38
488.103	6309.99
488.457	6720.7
488.81	6812.72
489.164	7048.38
489.518	7117.95
489.872	6857.61
490.225	6915.96
490.579	7106.73
490.932	7501.74
491.286	7443.38
491.639	7308.72
491.993	7524.18
492.346	7364.83
492.7	7254.86
493.053	7187.53
493.406	6987.78
493.759	7272.81
494.112	7293.01
494.466	7295.26
494.819	7420.94
495.172	7463.58
495.525	7537.65
495.878	7804.72
496.231	7901.23
496.583	7750.86
496.936	7638.64
497.289	7645.38
497.642	7943.87
497.994	7681.29
498.347	7658.84
498.7	7802.48
499.052	7620.69
499.405	7293.01
499.757	7380.54
500.11	7562.34
500.462	7674.55
500.814	7797.99
501.167	7533.16
501.519	7398.5
501.871	7198.75
502.223	7394.01
502.575	7135.91
502.928	7192.02
503.28	7344.63
503.632	7656.6
503.984	7564.58
504.335	7728.42
504.687	7766.57
505.039	7385.03
505.391	7308.72
505.743	7643.13
506.094	7854.1
506.446	8038.14
506.798	8166.06
507.149	8354.59
507.501	8114.44
507.852	8307.46
508.204	7943.87
508.555	8127.91
508.906	7818.19
509.258	7815.95
509.609	7898.99
509.96	8302.97
510.311	8480.27
510.663	8536.38
511.014	8455.59
511.365	8132.4
511.716	8583.51
512.067	8612.69
512.418	8637.38
512.768	8832.64
513.119	8868.55
513.47	8715.93
513.821	8547.6
514.171	8471.3
514.522	8585.76
514.873	8588
515.223	8487.01
515.574	8588
515.924	8785.51
516.275	8902.21
516.625	8933.63
516.975	9122.16
517.326	8798.97
517.676	8426.41
518.026	7829.41
518.376	7831.66
518.727	8278.28
519.077	8875.28
519.427	8531.89
519.777	8347.86
520.127	9229.89
520.477	9218.66
520.826	9584.49
521.176	9878.5
521.526	9808.93
521.876	9672.02
522.225	9916.66
522.575	10322.88
522.925	10170.27
523.274	10318.4
523.624	10212.91
523.973	9939.1
524.323	10435.1
524.672	10219.64
525.021	11054.54
525.371	10928.86
525.72	11038.83
526.069	10866.02
526.418	10762.78
526.767	11063.52
527.117	10874.99
527.466	10307.17
527.815	9752.82
528.164	9757.31
528.512	10134.36
528.861	10524.88
529.21	11007.41
529.559	10892.95
529.908	11467.5
530.256	11626.85
530.605	11631.34
530.954	11485.46
531.302	11213.89
531.651	11584.21
531.999	11965.75
532.347	12131.83
532.696	11669.49
533.044	11640.32
533.392	11431.59
533.741	11007.41
534.089	10760.53
534.437	11016.39
534.785	11575.23
535.133	11330.6
535.481	11252.05
535.829	11460.77
536.177	11676.23
536.525	11754.78
536.873	11972.48
537.221	12024.1
537.568	11371
537.916	11287.95
538.264	11009.66
538.611	11492.19
538.959	11721.11
539.307	11564.01
539.654	11537.08
540.001	11721.11
540.349	11204.91
540.696	11216.14
541.044	11225.11
541.391	10859.28
541.738	10704.42
542.085	10818.89
542.432	10975.99
542.779	11402.42
543.126	11276.73
543.473	11256.53
543.82	11326.11
544.167	11063.52
544.514	11247.56
544.861	11207.16
545.208	11440.57
545.555	11393.44
545.901	11225.11
546.248	11278.98
546.595	11321.62
546.941	11292.44
547.288	11485.46
547.634	11281.22
547.98	11766
548.327	11465.26
548.673	11276.73
549.019	11164.52
549.366	11106.16
549.712	11195.94
550.058	11119.63
550.404	11375.48
550.75	11263.27
551.096	11348.55
551.442	11229.6
551.788	11355.29
552.134	11330.6
552.48	11198.18
552.826	11305.91
553.171	11575.23
553.517	11514.63
553.863	11186.96
554.208	10933.35
554.554	11458.53
554.9	11106.16
555.245	11400.17
555.59	11323.86
555.936	11456.28
556.281	11400.17
556.626	11029.85
556.972	11393.44
557.317	11144.32
557.662	10897.44
558.007	10594.45
558.352	10697.69
558.697	10910.9
559.042	10841.33
559.387	10769.51
559.732	10574.25
560.077	10076.01
560.422	10269.02
560.767	10625.87
561.111	10253.31
561.456	10374.5
561.801	10803.18
562.145	10610.16
562.49	10776.24
562.834	10275.75
563.179	10677.49
563.523	10502.43
563.867	10363.28
564.212	10430.61
564.556	10428.37
564.9	9995.21
565.244	10307.17
565.589	10251.07
565.933	10356.55
566.277	10013.16
566.621	9941.35
566.965	9882.99
567.309	9714.67
567.652	9896.46
567.996	9826.88
568.34	10080.49
568.684	9835.86
569.027	9597.96
569.371	9714.67
569.715	9418.41
570.058	9301.71
570.402	9366.79
570.745	9279.26
571.089	9382.5
571.432	9068.29
571.775	9034.63
572.119	8653.09
572.462	8711.44
572.805	8987.5
573.148	9122.16
573.491	9209.69
573.834	9092.98
574.177	8915.68
574.52	8870.79
574.863	8798.97
575.206	8668.8
575.549	8787.75
575.892	8585.76
576.234	8549.85
576.577	8361.32
576.92	8381.52
577.262	8260.33
577.605	8401.72
577.947	8325.41
578.29	8139.13
578.632	8377.03
578.975	8026.92
579.317	7966.32
579.659	7961.83
580.001	8011.2
580.344	7851.86
580.686	8040.38
581.028	7973.05
581.37	7955.1
581.712	7966.32
582.054	8015.69
582.396	7878.79
582.738	7883.28
583.079	7851.86
583.421	8020.18
583.763	7730.66
584.105	8044.87
584.446	7854.1
584.788	7652.11
585.129	7939.39
585.471	7809.21
585.812	7818.19
586.154	7613.96
586.495	7474.81
586.836	7308.72
587.178	7310.97
587.519	7450.12
587.86	7349.12
588.201	7337.9
588.542	7331.17
588.883	7194.26
589.224	7117.95
589.565	6794.77
589.906	6532.18
590.247	6031.69
590.588	6179.82
590.929	6350.39
591.269	6595.02
591.61	6669.08
591.951	6808.23
592.291	6803.74
592.632	6731.93
592.972	6651.13
593.313	6630.93
593.653	6678.06
593.993	6543.4
594.334	6725.19
594.674	6691.53
595.014	6707.24
595.354	6642.15
595.694	6437.92
596.034	6336.92
596.375	6480.56
596.714	6393.03
597.054	6577.07
597.394	6511.98
597.734	6507.49
598.074	6503
598.414	6363.85
598.753	6417.72
599.093	6608.49
599.433	6330.19
599.772	6285.3
600.112	6298.77
600.451	6357.12
600.791	6271.83
601.13	6307.74
601.469	6262.86
601.809	6269.59
602.148	6112.49
602.487	6114.73
602.826	5980.07
603.165	6007
603.504	5932.94
603.843	6132.68
604.182	6157.37
604.521	6318.97
604.86	6258.37
605.199	6213.48
605.538	6092.29
605.877	6150.64
606.215	6085.55
606.554	5854.39
606.892	6056.38
607.231	5858.87
607.57	5926.2
607.908	5816.23
608.246	5865.61
608.585	5751.15
608.923	5935.18
609.261	5764.61
609.6	5719.72
609.938	5704.01
610.276	5641.17
610.614	5486.31
610.952	5546.91
611.29	5466.11
611.628	5356.14
611.966	5463.87
612.304	5528.95
612.641	5344.92
612.979	5457.14
613.317	5194.55
613.655	5427.96
613.992	5234.94
614.33	5255.14
614.667	5156.39
615.005	5187.81
615.342	5255.14
615.68	5398.78
616.017	5221.48
616.354	5111.51
616.691	5111.51
617.029	4949.91
617.366	4738.94
617.703	4905.03
618.04	4909.51
618.377	4965.62
618.714	5041.93
619.051	5003.78
619.388	4985.82
619.725	4922.98
620.061	4846.67
620.398	4988.07
620.735	5048.66
621.071	5015
621.408	4983.58
621.745	4783.83
622.081	4884.83
622.417	4936.45
622.754	4671.61
623.09	4860.14
623.427	4732.21
623.763	4705.28
624.099	4651.41
624.435	4611.02
624.771	4593.06
625.107	4554.91
625.443	4694.06
625.779	4521.24
626.115	4606.53
626.451	4460.64
626.787	4541.44
627.123	4442.69
627.459	4512.26
627.794	4483.09
628.13	4469.62
628.465	4377.6
628.801	4224.99
629.137	4247.43
629.472	4299.05
629.807	4310.27
630.143	4341.69
630.478	4406.78
630.813	4202.54
631.149	4144.19
631.484	4263.14
631.819	4126.24
632.154	4258.65
632.489	4231.72
632.824	3980.35
633.159	4198.06
633.494	4146.44
633.829	4099.3
634.164	4043.2
634.498	4083.59
634.833	4049.93
635.168	3953.42
635.502	4081.35
635.837	4085.84
636.171	4106.04
636.506	4182.34
636.84	4141.95
637.175	3800.81
637.509	3913.02
637.843	3901.8
638.177	3944.44
638.512	3996.06
638.846	4000.55
639.18	3816.52
639.514	3836.72
639.848	3944.44
640.182	3863.65
640.516	3699.81
640.85	3764.9
641.183	3713.28
641.517	3625.75
641.851	3614.52
642.184	3681.86
642.518	3619.01
642.852	3632.48
643.185	3477.62
643.519	3506.8
643.852	4112.77
644.185	3547.19
644.519	3363.16
644.852	3461.91
645.185	3457.42
645.519	3396.82
645.852	3405.8
646.185	3329.49
646.518	3275.63
646.851	3311.54
647.184	3284.61
647.517	3203.81
647.849	3084.86
648.182	3154.43
648.515	3145.46
648.848	3082.61
649.18	3026.51
649.513	2956.93
649.846	2981.62
650.178	2896.33
650.511	2889.6
650.843	2972.64
651.175	2961.42
651.508	3051.19
651.84	2988.35
652.172	2826.76
652.504	2956.93
652.837	2873.89
653.169	2905.31
653.501	2817.78
653.833	2790.85
654.165	2842.47
654.496	2793.09
654.828	2811.05
655.16	2750.45
655.492	2725.76
655.824	2582.12
656.155	2575.39
656.487	2541.73
656.818	2438.49
657.15	2178.14
657.481	2175.9
657.813	2312.8
658.144	2438.49
658.475	2568.66
658.807	2483.37
659.138	2600.08
659.469	2568.66
659.8	2546.21
660.131	2703.32
660.462	2570.9
660.793	2467.66
661.124	2501.33
661.455	2427.26
661.786	2505.82
662.117	2467.66
662.448	2474.4
662.778	2570.9
663.109	2436.24
663.44	2503.57
663.77	2521.53
664.101	2292.6
664.431	2333
664.761	2178.14
665.092	2337.49
665.422	2279.14
665.752	2326.27
666.083	2263.43
666.413	2312.8
666.743	2344.22
667.073	2227.52
667.403	2173.65
667.733	2227.52
668.063	2151.21
668.393	2162.43
668.723	2214.05
669.052	2128.77
669.382	2249.96
669.712	2104.08
670.041	2139.99
670.371	2101.83
670.7	2061.43
671.03	2003.08
671.359	1958.19
671.689	2128.77
672.018	2023.28
672.347	1998.59
672.677	2068.17
673.006	1991.86
673.335	2099.59
673.664	1904.33
673.993	1931.26
674.322	2005.33
674.651	2007.57
674.98	1951.46
675.309	1906.57
675.638	1935.75
675.966	1886.38
676.295	1917.8
676.624	1843.73
676.952	1872.91
677.281	1897.6
677.61	1861.69
677.938	1832.51
678.266	1830.27
678.595	1738.25
678.923	1758.45
679.251	1868.42
679.58	1810.07
679.908	1706.83
680.236	1776.4
680.564	1816.8
680.892	1839.24
681.22	1756.2
681.548	1778.65
681.876	1805.58
682.204	1668.67
682.531	1688.87
682.859	1646.23
683.187	1837
683.514	1736
683.842	1702.34
684.17	1702.34
684.497	1666.43
684.825	1769.67
685.152	1596.85
685.479	1749.47
685.807	1643.99
686.134	1718.05
686.461	1650.72
686.788	1556.46
687.115	1507.08
687.442	1394.86
687.769	1174.92
688.096	1067.19
688.423	1199.6
688.75	1323.04
689.077	1453.22
689.404	1435.26
689.73	1374.66
690.057	1421.8
690.384	1372.42
690.71	1408.33
691.037	1556.46
691.363	1486.88
691.689	1635.01
692.016	1605.83
692.342	1677.65
692.668	1688.87
692.995	1704.58
693.321	1722.54
693.647	1709.07
693.973	1720.29
694.299	1778.65
694.625	1742.74
694.951	1780.89
695.277	1810.07
695.603	1706.83
695.928	1868.42
696.254	1875.15
696.58	1951.46
696.905	1980.64
697.231	1902.09
697.557	2003.08
697.882	2101.83
698.207	2137.74
698.533	2050.21
698.858	2099.59
699.183	2148.96
699.509	2243.23
699.834	2166.92
700.159	2297.09
700.484	2227.52
700.809	2193.85
701.134	2211.81
701.459	2249.96
701.784	2377.89
702.109	2294.85
702.434	2344.22
702.758	2301.58
703.083	2438.49
703.408	2436.24
703.732	2474.4
704.057	2472.15
704.381	2539.48
704.706	2543.97
705.03	2499.08
705.354	2723.52
705.679	2622.52
706.003	2716.78
706.327	2837.98
706.651	2591.1
706.975	2698.83
707.299	2754.94
707.623	2822.27
707.947	2703.32
708.271	2826.76
708.595	2871.64
708.919	2871.64
709.243	2954.69
709.566	2815.54
709.89	2907.55
710.214	2864.91
710.537	2956.93
710.861	3024.26
711.184	2981.62
711.507	3042.22
711.831	3044.46
712.154	2961.42
712.477	3114.03
712.801	3042.22
713.124	3051.19
713.447	3165.65
713.77	3022.02
714.093	3028.75
714.416	3120.77
714.739	3188.1
715.061	3149.94
715.384	3138.72
715.707	3071.39
716.03	3158.92
716.352	3194.83
716.675	3098.32
716.998	2972.64
717.32	2956.93
717.642	2736.98
717.965	2687.61
718.287	2743.72
718.61	2671.9
718.932	2613.54
719.254	2487.86
719.576	2492.35
719.898	2526.02
720.22	2539.48
720.542	2570.9
720.864	2584.37
721.186	2714.54
721.508	2808.8
721.83	2844.71
722.152	3105.06
722.473	3197.08
722.795	3125.26
723.116	3030.99
723.438	3062.41
723.76	2954.69
724.081	2802.07
724.402	2959.17
724.724	2833.49
725.045	2671.9
725.366	2840.22
725.687	2907.55
726.009	2880.62
726.33	3013.04
726.651	2934.49
726.972	2822.27
727.293	3017.53
727.614	2992.84
727.934	3013.04
728.255	2923.26
728.576	3006.31
728.897	3030.99
729.217	3120.77
729.538	2981.62
729.858	2887.36
730.179	3057.93
730.499	3244.21
730.82	3118.52
731.14	3197.08
731.46	3147.7
731.781	3163.41
732.101	3053.44
732.421	3143.21
732.741	3448.44
733.061	3347.45
733.381	3441.71
733.701	3428.24
734.021	3369.89
734.341	3641.46
734.661	3522.51
734.98	3513.53
735.3	3614.52
735.62	3461.91
735.939	3484.35
736.259	3529.24
736.578	3486.6
736.898	3448.44
737.217	3502.31
737.536	3484.35
737.856	3466.4
738.175	3513.53
738.494	3571.88
738.813	3475.37
739.132	3396.82
739.451	3313.78
739.77	3421.51
740.089	3457.42
740.408	3535.97
740.727	3437.22
741.046	3585.35
741.364	3396.82
741.683	3392.33
742.002	3401.31
742.32	3538.22
742.639	3329.49
742.957	3215.03
743.276	3473.13
743.594	3385.6
743.912	3320.51
744.231	3452.93
744.549	3419.27
744.867	3203.81
745.185	3316.03
745.503	3300.32
745.821	3311.54
746.139	3399.07
746.457	3219.52
746.775	3578.61
747.093	3264.41
747.41	3351.94
747.728	3277.87
748.046	3235.23
748.363	3064.66
748.681	3161.17
748.998	3143.21
749.316	3118.52
749.633	2992.84
749.951	3048.95
750.268	3060.17
750.585	3116.28
750.902	3183.61
751.22	3022.02
751.537	3051.19
751.854	2947.95
752.171	3010.79
752.488	2941.22
752.805	3064.66
753.121	3102.81
753.438	2887.36
753.755	2977.13
754.072	3046.7
754.388	2970.4
754.705	2936.73
755.021	2961.42
755.338	2952.44
755.654	2876.13
755.971	2822.27
756.287	2925.51
756.603	2860.42
756.919	2986.11
757.236	2860.42
757.552	2849.2
757.868	2763.92
758.184	2739.23
758.5	2826.76
758.816	2770.65
759.132	2629.26
759.447	2680.88
759.763	2288.11
760.079	1675.41
760.395	1172.67
760.71	836.02
761.026	640.76
761.341	611.59
761.657	548.74
761.972	869.69
762.287	970.68
762.603	1210.83
762.918	1051.48
763.233	966.19
763.548	997.61
763.863	885.4
764.178	941.5
764.493	948.24
764.808	1116.56
765.123	1293.87
765.438	1222.05
765.753	1473.42
766.068	1554.21
766.382	1664.19
766.697	1682.14
767.011	1700.09
767.326	1929.02
767.64	1881.89
767.955	1953.71
768.269	2000.84
768.584	2047.97
768.898	2045.72
769.212	1964.93
769.526	2032.26
769.84	1989.62
770.154	2018.79
770.468	2036.75
770.782	2056.95
771.096	2068.17
771.41	2162.43
771.724	2007.57
772.038	2014.3
772.351	1926.77
772.665	1935.75
772.979	1843.73
773.292	1994.1
773.606	1953.71
773.919	1976.15
774.232	1922.29
774.546	1854.95
774.859	1940.24
775.172	1870.67
775.486	1798.85
775.799	1832.51
776.112	1857.2
776.425	1753.96
776.738	1917.8
777.051	1789.87
777.364	1724.78
777.676	1632.76
777.989	1718.05
778.302	1639.5
778.614	1688.87
778.927	1641.74
779.24	1614.81
779.552	1648.47
779.865	2315.05
780.177	1697.85
780.489	1504.84
780.802	1578.9
781.114	1527.28
781.426	1563.19
781.738	1428.53
782.05	1558.7
782.362	1529.52
782.674	1462.19
782.986	1430.77
783.298	1403.84
783.61	1329.78
783.922	1450.97
784.233	1408.33
784.545	1352.22
784.857	1305.09
785.168	1323.04
785.48	1345.49
785.791	1278.16
786.103	1343.24
786.414	1248.98
786.725	1262.45
787.037	1186.14
787.348	1186.14
787.659	1275.91
787.97	1210.83
788.281	1231.03
788.592	1168.18
788.903	1107.59
789.214	1044.74
789.525	1073.92
789.836	1067.19
790.146	1058.21
790.457	1156.96
790.768	1073.92
791.078	1067.19
791.389	1013.32
791.699	1121.05
792.01	1143.5
792.32	979.66
792.63	912.33
792.94	1024.55
793.251	896.62
793.561	928.04
793.871	984.15
794.181	921.31
794.491	950.48
794.801	865.2
795.111	963.95
795.421	957.21
795.73	941.5
796.04	782.16
796.35	856.22
796.659	849.49
796.969	849.49
797.279	811.33
797.588	827.04
797.897	797.87
798.207	786.64
798.516	782.16
798.825	813.58
799.135	712.58
799.444	757.47
799.753	797.87
800.062	793.38
800.371	696.87
800.68	786.64
800.989	732.78
801.298	672.18
801.606	732.78
801.915	683.4
802.224	730.54
802.532	766.45
802.841	726.05
803.149	764.2
803.458	705.85
803.766	705.85
804.075	681.16
804.383	611.59
804.691	539.77
804.999	708.09
805.308	651.98
805.616	638.52
805.924	604.85
806.232	651.98
806.54	627.3
806.848	699.11
807.155	602.61
807.463	591.39
807.771	622.81
808.079	620.56
808.386	618.32
808.694	627.3
809.001	550.99
809.309	586.9
809.616	557.72
809.924	557.72
810.231	461.21
810.538	539.77
810.845	432.04
811.152	508.35
811.46	559.97
811.767	544.25
812.074	485.9
812.38	454.48
812.687	512.83
812.994	449.99
813.301	548.74
813.608	461.21
813.914	398.37
814.221	364.71
814.527	393.88
814.834	349
815.14	346.75
815.447	416.33
815.753	427.55
816.059	346.75
816.366	313.09
816.672	331.04
816.978	366.95
817.284	382.66
817.59	364.71
817.896	337.77
818.202	353.49
818.508	322.06
818.814	317.58
819.119	335.53
819.425	342.26
819.731	288.4
820.036	299.62
820.342	274.93
820.647	299.62
820.953	328.8
821.258	310.84
821.564	274.93
821.869	313.09
822.174	378.17
822.479	239.02
822.784	301.86
823.089	205.36
823.394	250.24
823.699	144.76
824.004	209.85
824.309	250.24
824.614	214.34
824.919	254.73
825.223	261.47
825.528	245.76
825.833	270.44
826.137	256.98
826.442	335.53
826.746	252.49
827.05	268.2
827.355	335.53
827.659	270.44
827.963	259.22
828.267	245.76
828.571	160.47
828.875	173.94
829.179	207.6
829.483	239.02
829.787	209.85
830.091	205.36
830.395	185.16
830.699	205.36
831.002	221.07
831.306	254.73
831.609	241.27
831.913	301.86
832.216	169.45
832.52	162.72
832.823	149.25
833.126	122.32
833.43	221.07
833.733	221.07
834.036	203.11
834.339	151.49
834.642	131.29
834.945	147
835.248	86.41
835.551	140.27
835.854	151.49
836.156	151.49
836.459	153.74
836.762	104.36
837.064	160.47
837.367	214.34
837.669	117.83
837.972	135.78
838.274	191.89
838.576	191.89
838.879	111.1
839.181	182.91
839.483	225.56
839.785	164.96
840.087	131.29
840.389	138.03
840.691	102.12
840.993	182.91
841.295	209.85
841.597	86.41
841.898	173.94
842.2	147
842.502	133.54
842.803	126.81
843.105	102.12
843.406	95.38
843.708	23.57
844.009	117.83
844.31	147
844.611	147
844.913	102.12
845.214	142.52
845.515	169.45
845.816	81.92
846.117	90.9
846.418	93.14
846.719	95.38
847.019	104.36
847.32	124.56
847.621	95.38
847.921	124.56
848.222	147
848.523	79.67
848.823	95.38
849.123	86.41
849.424	90.9
849.724	88.65
850.024	97.63
850.325	57.23
850.625	95.38
850.925	14.59
851.225	113.34
851.525	72.94
851.825	3.37
852.125	66.21
852.425	63.96
852.724	50.5
853.024	57.23
853.324	124.56
853.623	93.14
853.923	30.3
854.222	97.63
854.522	99.87
854.821	-19.08
855.12	88.65
855.42	72.94
855.719	16.83
856.018	32.54
856.317	30.3
856.616	54.99
856.915	97.63
857.214	32.54
857.513	72.94
857.812	43.76
858.111	88.65
858.409	5.61
858.708	50.5
859.007	84.16
859.305	43.76
859.604	126.81
859.902	99.87
860.201	50.5
860.499	25.81
860.797	-10.1
861.096	-30.3
861.394	72.94
861.692	-77.43
861.99	43.76
862.288	-30.3
862.586	43.76
862.884	54.99
863.182	50.5
863.479	81.92
863.777	1.12
864.075	48.25
864.373	84.16
864.67	41.52
864.968	5.61
865.265	10.1
865.563	41.52
865.86	25.81
866.157	37.03
866.454	-54.99
866.752	93.14
867.049	-30.3
867.346	46.01
867.643	-5.61
867.94	50.5
868.237	-28.05
868.534	19.08
868.83	-5.61
869.127	-5.61
869.424	-16.83
869.72	-21.32
870.017	-12.34
870.314	-72.94
870.61	-115.58
870.906	14.59
871.203	1.12
871.499	-59.48
871.795	23.57
872.092	-68.45
872.388	3.37
872.684	72.94
872.98	-37.03
873.276	59.48
873.572	30.3
873.868	50.5
874.163	68.45
874.459	-1.12
874.755	-30.3
875.051	10.1
875.346	-37.03
875.642	-48.25
875.937	59.48
876.233	-5.61
876.528	-30.3
876.823	-25.81
877.119	-46.01
877.414	-1.12
877.709	-54.99
878.004	-52.74
878.299	-5.61
878.594	-1.12
878.889	30.3
879.184	3.37
879.479	37.03
879.773	-39.28
880.068	-1.12
880.363	-84.16
880.657	3.37
880.952	-12.34
881.246	-28.05
